# All quantities actual values (not log10) 
#
# time(s)    dt(s)      dE(erg)  E(erg/g/s)    T(K)    rho(g/cm^3) 2/Rmax(s)
1.2878e+04 1.2878e+03 7.8249e+02 9.7877e+06 2.0000e+07 2.0000e+01 3.5144e+02
1.4166e+04 1.4166e+03 7.8071e+02 1.0793e+07 2.0000e+07 2.0000e+01 3.5144e+02
1.7141e+04 1.7141e+03 7.8004e+02 1.3115e+07 2.0000e+07 2.0000e+01 3.5144e+02
2.0740e+04 2.0740e+03 7.8136e+02 1.5926e+07 2.0000e+07 2.0000e+01 3.5144e+02
2.5096e+04 2.5096e+03 7.8034e+02 1.9324e+07 2.0000e+07 2.0000e+01 3.5144e+02
3.0366e+04 3.0366e+03 7.8049e+02 2.3438e+07 2.0000e+07 2.0000e+01 3.5144e+02
3.6742e+04 3.6742e+03 7.8051e+02 2.8416e+07 2.0000e+07 2.0000e+01 3.5144e+02
4.0417e+04 4.0417e+03 7.8016e+02 3.1282e+07 2.0000e+07 2.0000e+01 3.5144e+02
4.8904e+04 4.8904e+03 7.8079e+02 3.7908e+07 2.0000e+07 2.0000e+01 3.5144e+02
5.9174e+04 5.9174e+03 7.8063e+02 4.5925e+07 2.0000e+07 2.0000e+01 3.5144e+02
7.1601e+04 7.1601e+03 7.8053e+02 5.5625e+07 2.0000e+07 2.0000e+01 3.5144e+02
8.6637e+04 8.6637e+03 7.8060e+02 6.7363e+07 2.0000e+07 2.0000e+01 3.5144e+02
9.5300e+04 9.5300e+03 7.8072e+02 7.4127e+07 2.0000e+07 2.0000e+01 3.5144e+02
1.1531e+05 1.1531e+04 7.8081e+02 8.9752e+07 2.0000e+07 2.0000e+01 3.5144e+02
1.3953e+05 1.3953e+04 7.8069e+02 1.0866e+08 2.0000e+07 2.0000e+01 3.5144e+02
1.6883e+05 1.6883e+04 7.8058e+02 1.3153e+08 2.0000e+07 2.0000e+01 3.5144e+02
2.0428e+05 2.0428e+04 7.8055e+02 1.5920e+08 2.0000e+07 2.0000e+01 3.5144e+02
2.2471e+05 2.2471e+04 7.8066e+02 1.7515e+08 2.0000e+07 2.0000e+01 3.5144e+02
2.7190e+05 2.7190e+04 7.8062e+02 2.1199e+08 2.0000e+07 2.0000e+01 3.5144e+02
3.2900e+05 3.2900e+04 7.8062e+02 2.5656e+08 2.0000e+07 2.0000e+01 3.5144e+02
3.9809e+05 3.9809e+04 7.8061e+02 3.1049e+08 2.0000e+07 2.0000e+01 3.5144e+02
4.8169e+05 4.8169e+04 7.8062e+02 3.7575e+08 2.0000e+07 2.0000e+01 3.5144e+02
5.8285e+05 5.8285e+04 7.8061e+02 4.5472e+08 2.0000e+07 2.0000e+01 3.5144e+02
6.4113e+05 6.4113e+04 7.8062e+02 5.0022e+08 2.0000e+07 2.0000e+01 3.5144e+02
7.7577e+05 7.7577e+04 7.8061e+02 6.0532e+08 2.0000e+07 2.0000e+01 3.5144e+02
9.3868e+05 9.3868e+04 7.8059e+02 7.3249e+08 2.0000e+07 2.0000e+01 3.5144e+02
1.1358e+06 1.1358e+05 7.8062e+02 8.8637e+08 2.0000e+07 2.0000e+01 3.5144e+02
1.3743e+06 1.3743e+05 7.8061e+02 1.0726e+09 2.0000e+07 2.0000e+01 3.5144e+02
1.5118e+06 1.5118e+05 7.8061e+02 1.1798e+09 2.0000e+07 2.0000e+01 3.5144e+02
1.8292e+06 1.8292e+05 7.8060e+02 1.4277e+09 2.0000e+07 2.0000e+01 3.5144e+02
2.2134e+06 2.2134e+05 7.8060e+02 1.7275e+09 2.0000e+07 2.0000e+01 3.5144e+02
2.6782e+06 2.6782e+05 7.8059e+02 2.0903e+09 2.0000e+07 2.0000e+01 3.5144e+02
3.2406e+06 3.2406e+05 7.8058e+02 2.5293e+09 2.0000e+07 2.0000e+01 3.5144e+02
3.5646e+06 3.5646e+05 7.8058e+02 2.7823e+09 2.0000e+07 2.0000e+01 3.5144e+02
4.3132e+06 4.3132e+05 7.8056e+02 3.3666e+09 2.0000e+07 2.0000e+01 3.5144e+02
5.2190e+06 5.2190e+05 7.8055e+02 4.0736e+09 2.0000e+07 2.0000e+01 3.5144e+02
6.3150e+06 6.3150e+05 7.8053e+02 4.9291e+09 2.0000e+07 2.0000e+01 3.5144e+02
7.6411e+06 7.6411e+05 7.8051e+02 5.9642e+09 2.0000e+07 2.0000e+01 3.5144e+02
9.2458e+06 9.2458e+05 7.8049e+02 7.2166e+09 2.0000e+07 2.0000e+01 3.5144e+02
1.0170e+07 1.0170e+06 7.8047e+02 7.9382e+09 2.0000e+07 2.0000e+01 3.5144e+02
1.2306e+07 1.2306e+06 7.8044e+02 9.6050e+09 2.0000e+07 2.0000e+01 3.5144e+02
1.4890e+07 1.4890e+06 7.8040e+02 1.1622e+10 2.0000e+07 2.0000e+01 3.5144e+02
1.8017e+07 1.8017e+06 7.8035e+02 1.4062e+10 2.0000e+07 2.0000e+01 3.5144e+02
2.1801e+07 2.1801e+06 7.8029e+02 1.7014e+10 2.0000e+07 2.0000e+01 3.5144e+02
2.3981e+07 2.3981e+06 7.8026e+02 1.8715e+10 2.0000e+07 2.0000e+01 3.5144e+02
2.9017e+07 2.9017e+06 7.8018e+02 2.2645e+10 2.0000e+07 2.0000e+01 3.5144e+02
3.5111e+07 3.5111e+06 7.8009e+02 2.7398e+10 2.0000e+07 2.0000e+01 3.5144e+02
4.2484e+07 4.2484e+06 7.7997e+02 3.3149e+10 2.0000e+07 2.0000e+01 3.5144e+02
5.1406e+07 5.1406e+06 7.7984e+02 4.0107e+10 2.0000e+07 2.0000e+01 3.5144e+02
5.6546e+07 5.6546e+06 7.7976e+02 4.4116e+10 2.0000e+07 2.0000e+01 3.5144e+02
6.8421e+07 6.8421e+06 7.7957e+02 5.3373e+10 2.0000e+07 2.0000e+01 3.5144e+02
8.2789e+07 8.2789e+06 7.7935e+02 6.4572e+10 2.0000e+07 2.0000e+01 3.5144e+02
1.0018e+08 1.0018e+07 7.7909e+02 7.8118e+10 2.0000e+07 2.0000e+01 3.5144e+02
1.2121e+08 1.2121e+07 7.7877e+02 9.4503e+10 2.0000e+07 2.0000e+01 3.5144e+02
1.4667e+08 1.4667e+07 7.7838e+02 1.1432e+11 2.0000e+07 2.0000e+01 3.5144e+02
1.6133e+08 1.6133e+07 7.7815e+02 1.2573e+11 2.0000e+07 2.0000e+01 3.5144e+02
1.9521e+08 1.9521e+07 7.7764e+02 1.5208e+11 2.0000e+07 2.0000e+01 3.5144e+02
2.3621e+08 2.3621e+07 7.7702e+02 1.8394e+11 2.0000e+07 2.0000e+01 3.5144e+02
2.8581e+08 2.8581e+07 7.7628e+02 2.2246e+11 2.0000e+07 2.0000e+01 3.5144e+02
3.4583e+08 3.4583e+07 7.7538e+02 2.6901e+11 2.0000e+07 2.0000e+01 3.5144e+02
3.8042e+08 3.8042e+07 7.7487e+02 2.9581e+11 2.0000e+07 2.0000e+01 3.5144e+02
4.6030e+08 4.6030e+07 7.7369e+02 3.5764e+11 2.0000e+07 2.0000e+01 3.5144e+02
5.5697e+08 5.5697e+07 7.7227e+02 4.3232e+11 2.0000e+07 2.0000e+01 3.5144e+02
6.7393e+08 6.7393e+07 7.7059e+02 5.2250e+11 2.0000e+07 2.0000e+01 3.5144e+02
8.1545e+08 8.1545e+07 7.6858e+02 6.3135e+11 2.0000e+07 2.0000e+01 3.5144e+02
8.9700e+08 8.9700e+07 7.6743e+02 6.9393e+11 2.0000e+07 2.0000e+01 3.5144e+02
1.0854e+09 1.0854e+08 7.6483e+02 8.3812e+11 2.0000e+07 2.0000e+01 3.5144e+02
1.3133e+09 1.3133e+08 7.6175e+02 1.0119e+12 2.0000e+07 2.0000e+01 3.5144e+02
1.5891e+09 1.5891e+08 7.5814e+02 1.2213e+12 2.0000e+07 2.0000e+01 3.5144e+02
1.8704e+09 1.8704e+08 7.5410e+02 1.4337e+12 2.0000e+07 2.0000e+01 3.5144e+02
2.1582e+09 2.0162e+08 7.5013e+02 1.6500e+12 2.0000e+07 2.0000e+01 3.5144e+02
2.6027e+09 2.6027e+08 7.4516e+02 1.9820e+12 2.0000e+07 2.0000e+01 3.5144e+02
3.0160e+09 2.8176e+08 7.4009e+02 2.2885e+12 2.0000e+07 2.0000e+01 3.5144e+02
3.5519e+09 2.5988e+08 7.3407e+02 2.6831e+12 2.0000e+07 2.0000e+01 3.5144e+02
4.2664e+09 3.3559e+08 7.2706e+02 3.2045e+12 2.0000e+07 2.0000e+01 3.5144e+02
5.0628e+09 2.9728e+08 7.1957e+02 3.7799e+12 2.0000e+07 2.0000e+01 3.5144e+02
6.0233e+09 2.5808e+08 7.1158e+02 4.4665e+12 2.0000e+07 2.0000e+01 3.5144e+02
7.1139e+09 3.1366e+08 7.0398e+02 5.2378e+12 2.0000e+07 2.0000e+01 3.5144e+02
8.4293e+09 2.5628e+08 6.9598e+02 6.1578e+12 2.0000e+07 2.0000e+01 3.5144e+02
1.0015e+10 2.8730e+08 6.8839e+02 7.2547e+12 2.0000e+07 2.0000e+01 3.5144e+02
1.1894e+10 3.0932e+08 6.8151e+02 8.5409e+12 2.0000e+07 2.0000e+01 3.5144e+02
1.4259e+10 3.0717e+08 6.7546e+02 1.0145e+13 2.0000e+07 2.0000e+01 3.5144e+02
1.6859e+10 2.9295e+08 6.7145e+02 1.1895e+13 2.0000e+07 2.0000e+01 3.5144e+02
1.9961e+10 2.5771e+08 6.6931e+02 1.3973e+13 2.0000e+07 2.0000e+01 3.5144e+02
2.3803e+10 2.8689e+08 6.6943e+02 1.6544e+13 2.0000e+07 2.0000e+01 3.5144e+02
2.8197e+10 2.6614e+08 6.7196e+02 1.9491e+13 2.0000e+07 2.0000e+01 3.5144e+02
3.3616e+10 2.9957e+08 6.7712e+02 2.3146e+13 2.0000e+07 2.0000e+01 3.5144e+02
3.9908e+10 3.2455e+08 6.8460e+02 2.7430e+13 2.0000e+07 2.0000e+01 3.5144e+02
4.7345e+10 2.0521e+08 6.9439e+02 3.2558e+13 2.0000e+07 2.0000e+01 3.5144e+02
5.6262e+10 2.7277e+08 7.0639e+02 3.8804e+13 2.0000e+07 2.0000e+01 3.5144e+02
6.6861e+10 2.7938e+08 7.2061e+02 4.6367e+13 2.0000e+07 2.0000e+01 3.5144e+02
7.9456e+10 3.0151e+08 7.3704e+02 5.5549e+13 2.0000e+07 2.0000e+01 3.5144e+02
9.4443e+10 2.9158e+08 7.5584e+02 6.6738e+13 2.0000e+07 2.0000e+01 3.5144e+02
1.1223e+11 2.9245e+08 7.7703e+02 8.0371e+13 2.0000e+07 2.0000e+01 3.5144e+02
1.3340e+11 2.2792e+08 8.0076e+02 9.7082e+13 2.0000e+07 2.0000e+01 3.5144e+02
1.5861e+11 2.5979e+08 8.2688e+02 1.1760e+14 2.0000e+07 2.0000e+01 3.5144e+02
1.8851e+11 3.3736e+08 8.5508e+02 1.4276e+14 2.0000e+07 2.0000e+01 3.5144e+02
2.2401e+11 3.3074e+08 8.8495e+02 1.7365e+14 2.0000e+07 2.0000e+01 3.5144e+02
2.6611e+11 2.8996e+08 9.1562e+02 2.1158e+14 2.0000e+07 2.0000e+01 3.5144e+02
3.1628e+11 2.8891e+08 9.4605e+02 2.5831e+14 2.0000e+07 2.0000e+01 3.5144e+02
3.7594e+11 3.4315e+08 9.7448e+02 3.1564e+14 2.0000e+07 2.0000e+01 3.5144e+02
4.4670e+11 2.6051e+08 9.9870e+02 3.8551e+14 2.0000e+07 2.0000e+01 3.5144e+02
5.3099e+11 2.9515e+08 1.0161e+03 4.7050e+14 2.0000e+07 2.0000e+01 3.5144e+02
6.3100e+11 2.9174e+08 1.0236e+03 5.7261e+14 2.0000e+07 2.0000e+01 3.5144e+02
7.5002e+11 4.0295e+08 1.0180e+03 6.9425e+14 2.0000e+07 2.0000e+01 3.5144e+02
8.9129e+11 4.1741e+08 9.9625e+02 8.3668e+14 2.0000e+07 2.0000e+01 3.5144e+02
1.0593e+12 2.8852e+08 9.5593e+02 1.0008e+15 2.0000e+07 2.0000e+01 3.5144e+02
1.2590e+12 3.3713e+08 8.9601e+02 1.1859e+15 2.0000e+07 2.0000e+01 3.5144e+02
1.4963e+12 3.9581e+08 8.1721e+02 1.3893e+15 2.0000e+07 2.0000e+01 3.5144e+02
1.7783e+12 4.7883e+08 7.2246e+02 1.6063e+15 2.0000e+07 2.0000e+01 3.5144e+02
2.1137e+12 5.2257e+08 6.1659e+02 1.8306e+15 2.0000e+07 2.0000e+01 3.5144e+02
2.5119e+12 4.8019e+08 5.0636e+02 2.0535e+15 2.0000e+07 2.0000e+01 3.5144e+02
2.9856e+12 7.2635e+08 3.9872e+02 2.2669e+15 2.0000e+07 2.0000e+01 3.5144e+02
3.5483e+12 6.0856e+08 3.0048e+02 2.4622e+15 2.0000e+07 2.0000e+01 3.5144e+02
4.2171e+12 8.1487e+08 2.1675e+02 2.6334e+15 2.0000e+07 2.0000e+01 3.5144e+02
5.0123e+12 1.2009e+09 1.5044e+02 2.7775e+15 2.0000e+07 2.0000e+01 3.5144e+02
5.9574e+12 1.9224e+09 1.0211e+02 2.8947e+15 2.0000e+07 2.0000e+01 3.5144e+02
7.0804e+12 2.1274e+09 7.0027e+01 2.9895e+15 2.0000e+07 2.0000e+01 3.5144e+02
8.4150e+12 2.9071e+09 5.0949e+01 3.0686e+15 2.0000e+07 2.0000e+01 3.5144e+02
1.0001e+13 3.7842e+09 4.0979e+01 3.1403e+15 2.0000e+07 2.0000e+01 3.5144e+02
1.1887e+13 9.9429e+09 3.6504e+01 3.2126e+15 2.0000e+07 2.0000e+01 3.5144e+02
1.4133e+13 1.8151e+10 3.4825e+01 3.2923e+15 2.0000e+07 2.0000e+01 3.5144e+02
1.6803e+13 4.0378e+10 3.4319e+01 3.3845e+15 2.0000e+07 2.0000e+01 3.5144e+02
1.9978e+13 8.0250e+10 3.4199e+01 3.4932e+15 2.0000e+07 2.0000e+01 3.5144e+02
2.3775e+13 1.2968e+11 3.4177e+01 3.6230e+15 2.0000e+07 2.0000e+01 3.5144e+02
2.8316e+13 4.1351e+11 3.4174e+01 3.7782e+15 2.0000e+07 2.0000e+01 3.5144e+02
3.3628e+13 5.0721e+11 3.4172e+01 3.9597e+15 2.0000e+07 2.0000e+01 3.5144e+02
3.9984e+13 5.1471e+11 3.4171e+01 4.1769e+15 2.0000e+07 2.0000e+01 3.5144e+02
4.7357e+13 4.9547e+11 3.4169e+01 4.4288e+15 2.0000e+07 2.0000e+01 3.5144e+02
5.6250e+13 5.0642e+11 3.4166e+01 4.7327e+15 2.0000e+07 2.0000e+01 3.5144e+02
6.7018e+13 5.1773e+11 3.4164e+01 5.1006e+15 2.0000e+07 2.0000e+01 3.5144e+02
7.9518e+13 5.2486e+11 3.4160e+01 5.5276e+15 2.0000e+07 2.0000e+01 3.5144e+02
9.4505e+13 4.7555e+11 3.4157e+01 6.0395e+15 2.0000e+07 2.0000e+01 3.5144e+02
1.1250e+14 5.0490e+11 3.4152e+01 6.6540e+15 2.0000e+07 2.0000e+01 3.5144e+02
1.3339e+14 5.0650e+11 3.4147e+01 7.3676e+15 2.0000e+07 2.0000e+01 3.5144e+02
1.5871e+14 5.0892e+11 3.4140e+01 8.2320e+15 2.0000e+07 2.0000e+01 3.5144e+02
1.8844e+14 5.2594e+11 3.4133e+01 9.2468e+15 2.0000e+07 2.0000e+01 3.5144e+02
2.2410e+14 4.7449e+11 3.4124e+01 1.0464e+16 2.0000e+07 2.0000e+01 3.5144e+02
2.6613e+14 4.4668e+11 3.4113e+01 1.1898e+16 2.0000e+07 2.0000e+01 3.5144e+02
3.1635e+14 4.8590e+11 3.4100e+01 1.3611e+16 2.0000e+07 2.0000e+01 3.5144e+02
3.7587e+14 5.0584e+11 3.4085e+01 1.5640e+16 2.0000e+07 2.0000e+01 3.5144e+02
4.4672e+14 5.0101e+11 3.4067e+01 1.8054e+16 2.0000e+07 2.0000e+01 3.5144e+02
5.3110e+14 7.4255e+11 3.4046e+01 2.0928e+16 2.0000e+07 2.0000e+01 3.5144e+02
6.3118e+14 4.4769e+11 3.4020e+01 2.4334e+16 2.0000e+07 2.0000e+01 3.5144e+02
7.4996e+14 4.7231e+11 3.3990e+01 2.8373e+16 2.0000e+07 2.0000e+01 3.5144e+02
8.9140e+14 5.2520e+11 3.3954e+01 3.3178e+16 2.0000e+07 2.0000e+01 3.5144e+02
1.0593e+15 2.9379e+11 3.3912e+01 3.8875e+16 2.0000e+07 2.0000e+01 3.5144e+02
1.2590e+15 3.9291e+11 3.3862e+01 4.5642e+16 2.0000e+07 2.0000e+01 3.5144e+02
1.4962e+15 4.7391e+11 3.3802e+01 5.3669e+16 2.0000e+07 2.0000e+01 3.5144e+02
1.7784e+15 5.4351e+11 3.3731e+01 6.3197e+16 2.0000e+07 2.0000e+01 3.5144e+02
2.1136e+15 5.0851e+11 3.3647e+01 7.4487e+16 2.0000e+07 2.0000e+01 3.5144e+02
2.5121e+15 4.5945e+11 3.3547e+01 8.7876e+16 2.0000e+07 2.0000e+01 3.5144e+02
2.9855e+15 4.9267e+11 3.3429e+01 1.0373e+17 2.0000e+07 2.0000e+01 3.5144e+02
3.5483e+15 4.5465e+11 3.3289e+01 1.2250e+17 2.0000e+07 2.0000e+01 3.5144e+02
4.2170e+15 5.2541e+11 3.3123e+01 1.4471e+17 2.0000e+07 2.0000e+01 3.5144e+02
5.0120e+15 5.0647e+11 3.2928e+01 1.7097e+17 2.0000e+07 2.0000e+01 3.5144e+02
5.9567e+15 5.1568e+11 3.2697e+01 2.0196e+17 2.0000e+07 2.0000e+01 3.5144e+02
7.0796e+15 4.6751e+11 3.2424e+01 2.3852e+17 2.0000e+07 2.0000e+01 3.5144e+02
8.4141e+15 4.6324e+11 3.2104e+01 2.8158e+17 2.0000e+07 2.0000e+01 3.5144e+02
1.0000e+16 4.6383e+11 3.1726e+01 3.3220e+17 2.0000e+07 2.0000e+01 3.5144e+02
1.1885e+16 5.4442e+11 3.1284e+01 3.9159e+17 2.0000e+07 2.0000e+01 3.5144e+02
1.4125e+16 4.7175e+11 3.0766e+01 4.6109e+17 2.0000e+07 2.0000e+01 3.5144e+02
1.6788e+16 4.8120e+11 3.0161e+01 5.4220e+17 2.0000e+07 2.0000e+01 3.5144e+02
1.9953e+16 3.1623e+11 2.9459e+01 6.3653e+17 2.0000e+07 2.0000e+01 3.5144e+02
2.3714e+16 6.4569e+11 2.8644e+01 7.4579e+17 2.0000e+07 2.0000e+01 3.5144e+02
2.8184e+16 4.9620e+11 2.7706e+01 8.7173e+17 2.0000e+07 2.0000e+01 3.5144e+02
3.3497e+16 5.8927e+11 2.6630e+01 1.0160e+18 2.0000e+07 2.0000e+01 3.5144e+02
3.9811e+16 6.1949e+11 2.5406e+01 1.1803e+18 2.0000e+07 2.0000e+01 3.5144e+02
4.7315e+16 6.2133e+11 2.4024e+01 1.3657e+18 2.0000e+07 2.0000e+01 3.5144e+02
5.6234e+16 5.5738e+11 2.2478e+01 1.5730e+18 2.0000e+07 2.0000e+01 3.5144e+02
6.6835e+16 6.3093e+11 2.0770e+01 1.8021e+18 2.0000e+07 2.0000e+01 3.5144e+02
7.9433e+16 6.4514e+11 1.8908e+01 2.0519e+18 2.0000e+07 2.0000e+01 3.5144e+02
9.4406e+16 6.6603e+11 1.6911e+01 2.3198e+18 2.0000e+07 2.0000e+01 3.5144e+02
1.1220e+17 9.5943e+11 1.4809e+01 2.6016e+18 2.0000e+07 2.0000e+01 3.5144e+02
1.3335e+17 4.7379e+11 1.2648e+01 2.8914e+18 2.0000e+07 2.0000e+01 3.5144e+02
1.5849e+17 8.1836e+11 1.0485e+01 3.1812e+18 2.0000e+07 2.0000e+01 3.5144e+02
1.8837e+17 7.9129e+11 8.3902e+00 3.4620e+18 2.0000e+07 2.0000e+01 3.5144e+02
2.2387e+17 8.6559e+11 6.4373e+00 3.7238e+18 2.0000e+07 2.0000e+01 3.5144e+02
2.6607e+17 1.2258e+12 4.6980e+00 3.9568e+18 2.0000e+07 2.0000e+01 3.5144e+02
3.1623e+17 1.4690e+12 3.2308e+00 4.1533e+18 2.0000e+07 2.0000e+01 3.5144e+02
3.7584e+17 1.8170e+12 2.0703e+00 4.3088e+18 2.0000e+07 2.0000e+01 3.5144e+02
4.4669e+17 3.3364e+12 1.2197e+00 4.4227e+18 2.0000e+07 2.0000e+01 3.5144e+02
5.3089e+17 3.4680e+12 6.5035e-01 4.4989e+18 2.0000e+07 2.0000e+01 3.5144e+02
6.3096e+17 4.8966e+12 3.0797e-01 4.5448e+18 2.0000e+07 2.0000e+01 3.5144e+02
7.4990e+17 6.7813e+12 1.2665e-01 4.5690e+18 2.0000e+07 2.0000e+01 3.5144e+02
8.9125e+17 1.3589e+13 4.4051e-02 4.5801e+18 2.0000e+07 2.0000e+01 3.5144e+02
1.0593e+18 2.3334e+13 1.2554e-02 4.5843e+18 2.0000e+07 2.0000e+01 3.5144e+02
1.2589e+18 4.3635e+13 2.8234e-03 4.5856e+18 2.0000e+07 2.0000e+01 3.5144e+02
1.4963e+18 1.1543e+14 4.7925e-04 4.5859e+18 2.0000e+07 2.0000e+01 3.5144e+02
1.7783e+18 4.2746e+14 5.8247e-05 4.5860e+18 2.0000e+07 2.0000e+01 3.5144e+02
2.1136e+18 1.2431e+15 4.7523e-06 4.5860e+18 2.0000e+07 2.0000e+01 3.5144e+02
2.5150e+18 7.4182e+15 2.3766e-07 4.5860e+18 2.0000e+07 2.0000e+01 3.5144e+02
2.9952e+18 2.7147e+16 6.4768e-09 4.5860e+18 2.0000e+07 2.0000e+01 3.5144e+02
3.5917e+18 2.6071e+17 8.5851e-11 4.5860e+18 2.0000e+07 2.0000e+01 3.5144e+02
4.2377e+18 4.2377e+17 -8.2825e-13 4.5860e+18 2.0000e+07 2.0000e+01 3.5144e+02
5.1558e+18 4.9421e+17 8.6055e-16 4.5860e+18 2.0000e+07 2.0000e+01 3.5144e+02
6.2150e+18 6.2150e+17 0.0000e+00 4.5860e+18 2.0000e+07 2.0000e+01 3.5144e+02
7.1000e+18 7.1000e+17 0.0000e+00 4.5860e+18 2.0000e+07 2.0000e+01 3.5144e+02
8.5400e+18 7.2996e+17 0.0000e+00 4.5860e+18 2.0000e+07 2.0000e+01 3.5144e+02
1.0288e+19 1.0184e+18 0.0000e+00 4.5860e+18 2.0000e+07 2.0000e+01 3.5144e+02