# All quantities actual values (not log10) 
#
# time(s)    dt(s)      dE(erg)  E(erg/g/s)    T(K)    rho(g/cm^3) 2/Rmax(s)
1.2273e-18 1.2273e-19 4.5821e+27 5.5776e+09 6.0000e+09 1.0000e+08 8.8461e-14
1.4850e-18 1.4850e-19 4.5821e+27 6.7585e+09 6.0000e+09 1.0000e+08 8.8461e-14
1.7968e-18 1.7968e-19 4.5821e+27 8.1874e+09 6.0000e+09 1.0000e+08 8.8461e-14
2.1742e-18 2.1742e-19 4.5821e+27 9.9164e+09 6.0000e+09 1.0000e+08 8.8461e-14
2.6308e-18 2.6308e-19 4.5821e+27 1.2008e+10 6.0000e+09 1.0000e+08 8.8461e-14
3.1832e-18 3.1832e-19 4.5821e+27 1.4540e+10 6.0000e+09 1.0000e+08 8.8461e-14
3.8517e-18 3.8517e-19 4.5821e+27 1.7603e+10 6.0000e+09 1.0000e+08 8.8461e-14
4.6605e-18 4.6605e-19 4.5821e+27 2.1309e+10 6.0000e+09 1.0000e+08 8.8461e-14
5.6393e-18 5.6393e-19 4.5821e+27 2.5794e+10 6.0000e+09 1.0000e+08 8.8461e-14
6.8235e-18 6.8235e-19 4.5821e+27 3.1220e+10 6.0000e+09 1.0000e+08 8.8461e-14
8.2564e-18 8.2564e-19 4.5821e+27 3.7786e+10 6.0000e+09 1.0000e+08 8.8461e-14
9.9903e-18 9.9903e-19 4.5820e+27 4.5730e+10 6.0000e+09 1.0000e+08 8.8461e-14
1.0989e-17 1.0989e-18 4.5820e+27 5.0308e+10 6.0000e+09 1.0000e+08 8.8461e-14
1.3297e-17 1.3297e-18 4.5820e+27 6.0882e+10 6.0000e+09 1.0000e+08 8.8461e-14
1.6089e-17 1.6089e-18 4.5820e+27 7.3677e+10 6.0000e+09 1.0000e+08 8.8461e-14
1.9468e-17 1.9468e-18 4.5820e+27 8.9159e+10 6.0000e+09 1.0000e+08 8.8461e-14
2.3557e-17 2.3557e-18 4.5820e+27 1.0789e+11 6.0000e+09 1.0000e+08 8.8461e-14
2.8503e-17 2.8503e-18 4.5820e+27 1.3056e+11 6.0000e+09 1.0000e+08 8.8461e-14
3.4489e-17 3.4489e-18 4.5820e+27 1.5798e+11 6.0000e+09 1.0000e+08 8.8461e-14
4.1732e-17 4.1732e-18 4.5820e+27 1.9117e+11 6.0000e+09 1.0000e+08 8.8461e-14
5.0496e-17 5.0496e-18 4.5820e+27 2.3133e+11 6.0000e+09 1.0000e+08 8.8461e-14
6.1100e-17 6.1100e-18 4.5819e+27 2.7991e+11 6.0000e+09 1.0000e+08 8.8461e-14
7.3931e-17 7.3931e-18 4.5819e+27 3.3870e+11 6.0000e+09 1.0000e+08 8.8461e-14
8.9456e-17 8.9456e-18 4.5819e+27 4.0984e+11 6.0000e+09 1.0000e+08 8.8461e-14
1.0824e-16 1.0824e-17 4.5818e+27 4.9591e+11 6.0000e+09 1.0000e+08 8.8461e-14
1.3097e-16 1.3097e-17 4.5818e+27 6.0006e+11 6.0000e+09 1.0000e+08 8.8461e-14
1.5848e-16 1.5848e-17 4.5817e+27 7.2608e+11 6.0000e+09 1.0000e+08 8.8461e-14
1.7432e-16 1.7432e-17 4.5817e+27 7.9868e+11 6.0000e+09 1.0000e+08 8.8461e-14
2.1093e-16 2.1093e-17 4.5816e+27 9.6641e+11 6.0000e+09 1.0000e+08 8.8461e-14
2.5523e-16 2.5523e-17 4.5815e+27 1.1694e+12 6.0000e+09 1.0000e+08 8.8461e-14
3.0883e-16 3.0883e-17 4.5813e+27 1.4149e+12 6.0000e+09 1.0000e+08 8.8461e-14
3.7368e-16 3.7368e-17 4.5812e+27 1.7120e+12 6.0000e+09 1.0000e+08 8.8461e-14
4.5215e-16 4.5215e-17 4.5810e+27 2.0715e+12 6.0000e+09 1.0000e+08 8.8461e-14
5.4711e-16 5.4711e-17 4.5808e+27 2.5065e+12 6.0000e+09 1.0000e+08 8.8461e-14
6.6200e-16 6.6200e-17 4.5805e+27 3.0327e+12 6.0000e+09 1.0000e+08 8.8461e-14
8.0102e-16 8.0102e-17 4.5802e+27 3.6695e+12 6.0000e+09 1.0000e+08 8.8461e-14
9.6923e-16 9.6923e-17 4.5798e+27 4.4399e+12 6.0000e+09 1.0000e+08 8.8461e-14
1.1728e-15 1.1728e-16 4.5793e+27 5.3720e+12 6.0000e+09 1.0000e+08 8.8461e-14
1.4191e-15 1.4191e-16 4.5788e+27 6.4997e+12 6.0000e+09 1.0000e+08 8.8461e-14
1.7171e-15 1.7171e-16 4.5781e+27 7.8640e+12 6.0000e+09 1.0000e+08 8.8461e-14
2.0776e-15 2.0776e-16 4.5772e+27 9.5145e+12 6.0000e+09 1.0000e+08 8.8461e-14
2.5139e-15 2.5139e-16 4.5763e+27 1.1511e+13 6.0000e+09 1.0000e+08 8.8461e-14
2.7653e-15 2.7653e-16 4.5757e+27 1.2662e+13 6.0000e+09 1.0000e+08 8.8461e-14
3.3460e-15 3.3460e-16 4.5744e+27 1.5318e+13 6.0000e+09 1.0000e+08 8.8461e-14
4.0487e-15 4.0487e-16 4.5729e+27 1.8532e+13 6.0000e+09 1.0000e+08 8.8461e-14
4.8990e-15 4.8990e-16 4.5710e+27 2.2418e+13 6.0000e+09 1.0000e+08 8.8461e-14
5.9277e-15 5.9277e-16 4.5689e+27 2.7119e+13 6.0000e+09 1.0000e+08 8.8461e-14
7.1726e-15 7.1726e-16 4.5663e+27 3.2804e+13 6.0000e+09 1.0000e+08 8.8461e-14
8.6788e-15 8.6788e-16 4.5633e+27 3.9679e+13 6.0000e+09 1.0000e+08 8.8461e-14
1.0501e-14 1.0501e-15 4.5598e+27 4.7991e+13 6.0000e+09 1.0000e+08 8.8461e-14
1.2707e-14 1.2707e-15 4.5558e+27 5.8040e+13 6.0000e+09 1.0000e+08 8.8461e-14
1.5375e-14 1.5375e-15 4.5512e+27 7.0187e+13 6.0000e+09 1.0000e+08 8.8461e-14
1.8604e-14 1.8604e-15 4.5460e+27 8.4869e+13 6.0000e+09 1.0000e+08 8.8461e-14
2.2511e-14 2.2511e-15 4.5403e+27 1.0261e+14 6.0000e+09 1.0000e+08 8.8461e-14
2.7238e-14 2.7238e-15 4.5341e+27 1.2405e+14 6.0000e+09 1.0000e+08 8.8461e-14
3.2958e-14 3.2958e-15 4.5277e+27 1.4996e+14 6.0000e+09 1.0000e+08 8.8461e-14
3.9879e-14 3.9879e-15 4.5213e+27 1.8126e+14 6.0000e+09 1.0000e+08 8.8461e-14
4.3867e-14 4.3867e-15 4.5183e+27 1.9928e+14 6.0000e+09 1.0000e+08 8.8461e-14
5.3079e-14 5.3079e-15 4.5130e+27 2.4087e+14 6.0000e+09 1.0000e+08 8.8461e-14
6.4225e-14 6.4225e-15 4.5094e+27 2.9114e+14 6.0000e+09 1.0000e+08 8.8461e-14
7.7713e-14 7.7713e-15 4.5085e+27 3.5195e+14 6.0000e+09 1.0000e+08 8.8461e-14
9.4032e-14 9.4032e-15 4.5118e+27 4.2556e+14 6.0000e+09 1.0000e+08 8.8461e-14
1.1378e-13 1.1378e-14 4.5209e+27 5.1478e+14 6.0000e+09 1.0000e+08 8.8461e-14
1.3767e-13 1.3767e-14 4.5375e+27 6.2309e+14 6.0000e+09 1.0000e+08 8.8461e-14
1.6658e-13 1.6658e-14 4.5634e+27 7.5483e+14 6.0000e+09 1.0000e+08 8.8461e-14
2.0157e-13 2.0157e-14 4.5995e+27 9.1541e+14 6.0000e+09 1.0000e+08 8.8461e-14
2.4390e-13 2.4390e-14 4.6456e+27 1.1116e+15 6.0000e+09 1.0000e+08 8.8461e-14
2.9511e-13 2.9511e-14 4.6988e+27 1.3516e+15 6.0000e+09 1.0000e+08 8.8461e-14
3.5709e-13 3.5709e-14 4.7538e+27 1.6454e+15 6.0000e+09 1.0000e+08 8.8461e-14
4.3208e-13 4.3208e-14 4.8033e+27 2.0047e+15 6.0000e+09 1.0000e+08 8.8461e-14
4.9468e-13 4.9468e-14 4.8344e+27 2.3070e+15 6.0000e+09 1.0000e+08 8.8461e-14
5.9411e-13 5.5504e-14 4.8601e+27 2.7895e+15 6.0000e+09 1.0000e+08 8.8461e-14
6.9438e-13 6.0790e-14 4.8712e+27 3.2776e+15 6.0000e+09 1.0000e+08 8.8461e-14
8.4925e-13 7.8499e-14 4.8794e+27 4.0328e+15 6.0000e+09 1.0000e+08 8.8461e-14
1.0340e-12 7.0957e-14 4.8882e+27 4.9354e+15 6.0000e+09 1.0000e+08 8.8461e-14
1.2325e-12 6.2857e-14 4.8980e+27 5.9067e+15 6.0000e+09 1.0000e+08 8.8461e-14
1.4592e-12 7.7954e-14 4.9055e+27 7.0182e+15 6.0000e+09 1.0000e+08 8.8461e-14
1.7442e-12 6.6320e-14 4.9027e+27 8.4163e+15 6.0000e+09 1.0000e+08 8.8461e-14
2.1149e-12 7.5864e-14 4.8718e+27 1.0228e+16 6.0000e+09 1.0000e+08 8.8461e-14
2.5151e-12 5.9532e-14 4.8029e+27 1.2164e+16 6.0000e+09 1.0000e+08 8.8461e-14
3.0473e-12 6.2812e-14 4.6721e+27 1.4685e+16 6.0000e+09 1.0000e+08 8.8461e-14
3.6475e-12 6.3648e-14 4.4928e+27 1.7434e+16 6.0000e+09 1.0000e+08 8.8461e-14
4.3659e-12 5.9489e-14 4.2627e+27 2.0576e+16 6.0000e+09 1.0000e+08 8.8461e-14
5.2733e-12 7.3264e-14 3.9794e+27 2.4310e+16 6.0000e+09 1.0000e+08 8.8461e-14
6.3102e-12 8.1560e-14 3.6767e+27 2.8271e+16 6.0000e+09 1.0000e+08 8.8461e-14
7.6127e-12 7.8822e-14 3.3278e+27 3.2822e+16 6.0000e+09 1.0000e+08 8.8461e-14
9.1419e-12 6.6130e-14 2.9568e+27 3.7615e+16 6.0000e+09 1.0000e+08 8.8461e-14
1.0996e-11 6.4761e-14 2.5699e+27 4.2720e+16 6.0000e+09 1.0000e+08 8.3045e-14
1.3201e-11 6.8280e-14 2.2014e+27 4.7958e+16 6.0000e+09 1.0000e+08 7.3891e-14
1.5851e-11 6.3329e-14 1.8616e+27 5.3316e+16 6.0000e+09 1.0000e+08 6.6114e-14
1.9058e-11 4.4856e-14 1.5546e+27 5.8764e+16 6.0000e+09 1.0000e+08 5.9436e-14
2.2911e-11 4.0459e-14 1.2927e+27 6.4214e+16 6.0000e+09 1.0000e+08 5.3764e-14
2.7553e-11 3.5737e-14 1.0832e+27 6.9690e+16 6.0000e+09 1.0000e+08 4.8911e-14
3.3125e-11 3.2616e-14 9.3466e+26 7.5268e+16 6.0000e+09 1.0000e+08 4.4747e-14
3.9820e-11 2.8748e-14 8.5265e+26 8.1204e+16 6.0000e+09 1.0000e+08 4.1176e-14
4.7872e-11 3.1379e-14 8.3753e+26 8.7965e+16 6.0000e+09 1.0000e+08 3.8197e-14
5.7554e-11 3.3053e-14 8.7299e+26 9.6224e+16 6.0000e+09 1.0000e+08 3.5921e-14
6.9192e-11 2.8966e-14 9.1566e+26 1.0666e+17 6.0000e+09 1.0000e+08 3.4548e-14
8.3177e-11 3.0571e-14 9.1211e+26 1.1952e+17 6.0000e+09 1.0000e+08 3.4257e-14
1.0001e-10 3.4422e-14 8.4347e+26 1.3435e+17 6.0000e+09 1.0000e+08 3.5056e-14
1.2023e-10 3.1748e-14 7.3300e+26 1.5030e+17 6.0000e+09 1.0000e+08 3.6726e-14
1.4455e-10 3.4856e-14 6.1184e+26 1.6660e+17 6.0000e+09 1.0000e+08 3.8910e-14
1.7378e-10 3.2691e-14 4.9912e+26 1.8275e+17 6.0000e+09 1.0000e+08 4.1242e-14
2.0893e-10 3.1389e-14 4.0237e+26 1.9850e+17 6.0000e+09 1.0000e+08 4.3459e-14
2.5120e-10 3.3668e-14 3.2263e+26 2.1371e+17 6.0000e+09 1.0000e+08 4.5437e-14
3.0201e-10 4.0030e-14 2.5835e+26 2.2836e+17 6.0000e+09 1.0000e+08 4.7156e-14
3.6310e-10 4.7320e-14 2.0725e+26 2.4247e+17 6.0000e+09 1.0000e+08 4.8636e-14
4.3652e-10 4.0763e-14 1.6715e+26 2.5611e+17 6.0000e+09 1.0000e+08 4.9898e-14
5.2483e-10 4.0083e-14 1.3606e+26 2.6939e+17 6.0000e+09 1.0000e+08 5.0948e-14
6.3097e-10 8.3826e-14 1.1227e+26 2.8247e+17 6.0000e+09 1.0000e+08 5.1782e-14
7.5864e-10 1.0189e-13 9.4228e+25 2.9557e+17 6.0000e+09 1.0000e+08 5.2395e-14
9.1204e-10 7.7533e-14 8.0541e+25 3.0889e+17 6.0000e+09 1.0000e+08 5.2784e-14
1.0965e-09 8.1228e-14 6.9988e+25 3.2271e+17 6.0000e+09 1.0000e+08 5.2961e-14
1.3183e-09 6.5024e-14 6.1531e+25 3.3723e+17 6.0000e+09 1.0000e+08 5.2951e-14
1.5849e-09 6.2689e-14 5.4357e+25 3.5263e+17 6.0000e+09 1.0000e+08 5.2786e-14
1.9055e-09 5.5709e-14 4.7898e+25 3.6898e+17 6.0000e+09 1.0000e+08 5.2499e-14
2.2909e-09 5.0490e-14 4.1828e+25 3.8622e+17 6.0000e+09 1.0000e+08 5.2118e-14
2.7542e-09 4.8029e-14 3.6008e+25 4.0420e+17 6.0000e+09 1.0000e+08 5.1664e-14
3.3113e-09 4.7809e-14 3.0425e+25 4.2265e+17 6.0000e+09 1.0000e+08 5.1150e-14
3.9811e-09 4.9975e-14 2.5143e+25 4.4118e+17 6.0000e+09 1.0000e+08 5.0583e-14
4.7863e-09 5.6108e-14 2.0254e+25 4.5937e+17 6.0000e+09 1.0000e+08 4.9964e-14
5.7544e-09 6.4285e-14 1.5854e+25 4.7674e+17 6.0000e+09 1.0000e+08 4.9293e-14
6.9183e-09 7.7385e-14 1.2024e+25 4.9284e+17 6.0000e+09 1.0000e+08 4.8570e-14
8.3177e-09 7.3554e-14 8.8109e+24 5.0727e+17 6.0000e+09 1.0000e+08 4.7791e-14
1.0000e-08 7.5063e-14 6.2249e+24 5.1977e+17 6.0000e+09 1.0000e+08 4.6957e-14
1.2023e-08 7.7270e-14 4.2344e+24 5.3019e+17 6.0000e+09 1.0000e+08 4.6071e-14
1.4454e-08 9.9392e-14 2.7743e+24 5.3855e+17 6.0000e+09 1.0000e+08 4.5138e-14
1.7378e-08 1.6577e-13 1.7558e+24 5.4504e+17 6.0000e+09 1.0000e+08 4.4166e-14
2.0893e-08 2.4570e-13 1.0806e+24 5.4990e+17 6.0000e+09 1.0000e+08 4.3165e-14
2.5119e-08 2.6525e-13 6.5367e+23 5.5346e+17 6.0000e+09 1.0000e+08 4.2143e-14
3.0200e-08 2.0291e-13 3.9371e+23 5.5605e+17 6.0000e+09 1.0000e+08 4.1109e-14
3.6308e-08 1.7633e-13 2.3891e+23 5.5792e+17 6.0000e+09 1.0000e+08 4.0069e-14
4.3652e-08 1.4239e-13 1.4685e+23 5.5930e+17 6.0000e+09 1.0000e+08 3.9030e-14
5.2481e-08 1.6494e-13 9.1403e+22 5.6033e+17 6.0000e+09 1.0000e+08 3.7997e-14
6.3096e-08 2.2025e-13 5.7235e+22 5.6109e+17 6.0000e+09 1.0000e+08 3.6971e-14
7.5858e-08 2.9096e-13 3.5580e+22 5.6167e+17 6.0000e+09 1.0000e+08 3.5953e-14
9.1201e-08 1.9141e-13 2.1735e+22 5.6210e+17 6.0000e+09 1.0000e+08 3.4935e-14
1.0965e-07 4.2499e-13 1.2652e+22 5.6241e+17 6.0000e+09 1.0000e+08 3.3910e-14
1.3183e-07 3.7975e-13 6.9836e+21 5.6262e+17 6.0000e+09 1.0000e+08 3.2863e-14
1.5849e-07 2.9359e-13 3.6991e+21 5.6276e+17 6.0000e+09 1.0000e+08 3.1781e-14
1.9055e-07 3.5020e-13 1.9212e+21 5.6284e+17 6.0000e+09 1.0000e+08 3.0654e-14
2.2909e-07 3.0684e-13 1.0938e+21 5.6290e+17 6.0000e+09 1.0000e+08 2.9478e-14
2.7542e-07 3.4255e-13 7.2522e+20 5.6294e+17 6.0000e+09 1.0000e+08 2.8259e-14
3.3113e-07 3.6731e-13 5.1684e+20 5.6297e+17 6.0000e+09 1.0000e+08 2.7010e-14
3.9811e-07 3.8656e-13 4.4527e+20 5.6301e+17 6.0000e+09 1.0000e+08 2.5748e-14
4.7863e-07 4.2065e-13 4.3830e+20 5.6304e+17 6.0000e+09 1.0000e+08 2.4493e-14
5.7544e-07 6.0809e-13 4.6809e+20 5.6308e+17 6.0000e+09 1.0000e+08 2.3263e-14
6.9183e-07 5.4774e-13 5.1466e+20 5.6314e+17 6.0000e+09 1.0000e+08 2.2074e-14
8.3176e-07 5.5432e-13 5.5560e+20 5.6322e+17 6.0000e+09 1.0000e+08 2.0942e-14
1.0000e-06 6.0726e-13 5.8667e+20 5.6331e+17 6.0000e+09 1.0000e+08 1.9876e-14
1.2023e-06 7.1629e-13 5.9540e+20 5.6343e+17 6.0000e+09 1.0000e+08 1.8885e-14
1.4454e-06 6.8995e-13 5.7296e+20 5.6358e+17 6.0000e+09 1.0000e+08 1.7973e-14
1.7378e-06 7.9184e-13 5.2366e+20 5.6374e+17 6.0000e+09 1.0000e+08 1.7142e-14
2.0893e-06 6.9439e-13 4.5809e+20 5.6391e+17 6.0000e+09 1.0000e+08 1.6390e-14
2.5119e-06 7.3651e-13 3.8460e+20 5.6409e+17 6.0000e+09 1.0000e+08 1.5714e-14
3.0200e-06 1.1492e-12 3.0397e+20 5.6426e+17 6.0000e+09 1.0000e+08 1.5111e-14
3.6308e-06 1.1300e-12 2.2472e+20 5.6442e+17 6.0000e+09 1.0000e+08 1.4573e-14
4.3652e-06 8.9471e-13 1.4937e+20 5.6456e+17 6.0000e+09 1.0000e+08 1.4095e-14
5.2481e-06 9.4005e-13 8.7539e+19 5.6466e+17 6.0000e+09 1.0000e+08 1.3671e-14
6.3096e-06 8.7124e-13 3.8582e+19 5.6473e+17 6.0000e+09 1.0000e+08 1.3294e-14
7.5858e-06 8.7562e-13 3.6553e+18 5.6475e+17 6.0000e+09 1.0000e+08 1.2959e-14
9.1201e-06 1.0220e-12 -2.4223e+19 5.6474e+17 6.0000e+09 1.0000e+08 1.2659e-14
1.0965e-05 1.1236e-12 -4.1335e+19 5.6468e+17 6.0000e+09 1.0000e+08 1.2392e-14
1.3183e-05 1.2707e-12 -5.3871e+19 5.6457e+17 6.0000e+09 1.0000e+08 1.2151e-14
1.5849e-05 1.3799e-12 -5.9450e+19 5.6442e+17 6.0000e+09 1.0000e+08 1.1933e-14
1.9055e-05 1.8408e-12 -6.1650e+19 5.6422e+17 6.0000e+09 1.0000e+08 1.1736e-14
2.2909e-05 2.2179e-12 -6.1864e+19 5.6398e+17 6.0000e+09 1.0000e+08 1.1556e-14
2.7542e-05 2.6374e-12 -5.8836e+19 5.6370e+17 6.0000e+09 1.0000e+08 1.1392e-14
3.3113e-05 2.1903e-12 -5.6311e+19 5.6338e+17 6.0000e+09 1.0000e+08 1.1241e-14
3.9811e-05 2.3857e-12 -5.2708e+19 5.6301e+17 6.0000e+09 1.0000e+08 1.1102e-14
4.7863e-05 2.3125e-12 -4.8517e+19 5.6261e+17 6.0000e+09 1.0000e+08 1.0973e-14
5.7544e-05 2.6883e-12 -4.4063e+19 5.6216e+17 6.0000e+09 1.0000e+08 1.0854e-14
6.9183e-05 2.5758e-12 -3.9723e+19 5.6167e+17 6.0000e+09 1.0000e+08 1.0743e-14
8.3176e-05 3.4890e-12 -3.5706e+19 5.6115e+17 6.0000e+09 1.0000e+08 1.0640e-14
1.0000e-04 3.7585e-12 -3.1480e+19 5.6058e+17 6.0000e+09 1.0000e+08 1.0544e-14
1.2023e-04 5.8813e-12 -2.7767e+19 5.5999e+17 6.0000e+09 1.0000e+08 1.0453e-14
1.4454e-04 5.0903e-12 -2.4144e+19 5.5936e+17 6.0000e+09 1.0000e+08 1.0369e-14
1.7378e-04 6.3486e-12 -2.0557e+19 5.5870e+17 6.0000e+09 1.0000e+08 1.0290e-14
2.0893e-04 8.8768e-12 -1.7291e+19 5.5804e+17 6.0000e+09 1.0000e+08 1.0217e-14
2.5119e-04 1.2169e-11 -1.4320e+19 5.5738e+17 6.0000e+09 1.0000e+08 1.0148e-14
3.0200e-04 1.2751e-11 -1.1122e+19 5.5674e+17 6.0000e+09 1.0000e+08 1.0084e-14
3.6308e-04 1.2876e-11 -8.2590e+18 5.5616e+17 6.0000e+09 1.0000e+08 1.0025e-14
4.3652e-04 5.9618e-12 -6.1235e+18 5.5564e+17 6.0000e+09 1.0000e+08 9.9698e-15
5.2481e-04 7.7638e-12 -3.5920e+18 5.5521e+17 6.0000e+09 1.0000e+08 9.9189e-15
6.3096e-04 8.8016e-12 -1.6878e+18 5.5493e+17 6.0000e+09 1.0000e+08 9.8726e-15
7.5858e-04 1.0923e-11 -1.4137e+17 5.5482e+17 6.0000e+09 1.0000e+08 9.8305e-15
9.1201e-04 1.3931e-11 1.3796e+18 5.5492e+17 6.0000e+09 1.0000e+08 9.7929e-15
1.0965e-03 1.4117e-11 2.7817e+18 5.5531e+17 6.0000e+09 1.0000e+08 9.7602e-15
1.3183e-03 1.4381e-11 4.0327e+18 5.5607e+17 6.0000e+09 1.0000e+08 9.7328e-15
1.5849e-03 1.4557e-11 5.0978e+18 5.5730e+17 6.0000e+09 1.0000e+08 9.7106e-15
1.9055e-03 1.4657e-11 5.9447e+18 5.5908e+17 6.0000e+09 1.0000e+08 9.6935e-15