# All quantities actual values (not log10) 
#
# time(s)    dt(s)      dE(erg)  E(erg/g/s)    T(K)    rho(g/cm^3) 2/Rmax(s)
1.2197e-05 1.2197e-06 0.0000e+00 0.0000e+00 2.5000e+07 1.0000e+02 1.8697e+02
1.4758e-05 1.4758e-06 0.0000e+00 0.0000e+00 2.5000e+07 1.0000e+02 1.8697e+02
1.7857e-05 1.7857e-06 0.0000e+00 0.0000e+00 2.5000e+07 1.0000e+02 1.8697e+02
2.1607e-05 2.1607e-06 0.0000e+00 0.0000e+00 2.5000e+07 1.0000e+02 1.8697e+02
2.6145e-05 2.6145e-06 0.0000e+00 0.0000e+00 2.5000e+07 1.0000e+02 1.8697e+02
3.1635e-05 3.1635e-06 0.0000e+00 0.0000e+00 2.5000e+07 1.0000e+02 1.8697e+02
3.4799e-05 3.4799e-06 0.0000e+00 0.0000e+00 2.5000e+07 1.0000e+02 1.8697e+02
4.2106e-05 4.2106e-06 0.0000e+00 0.0000e+00 2.5000e+07 1.0000e+02 1.8697e+02
5.0949e-05 5.0949e-06 0.0000e+00 0.0000e+00 2.5000e+07 1.0000e+02 1.8697e+02
6.1648e-05 6.1648e-06 0.0000e+00 0.0000e+00 2.5000e+07 1.0000e+02 1.8697e+02
7.4594e-05 7.4594e-06 0.0000e+00 0.0000e+00 2.5000e+07 1.0000e+02 1.8697e+02
9.0259e-05 9.0259e-06 0.0000e+00 0.0000e+00 2.5000e+07 1.0000e+02 1.8697e+02
9.9285e-05 9.9285e-06 0.0000e+00 0.0000e+00 2.5000e+07 1.0000e+02 1.8697e+02
1.2013e-04 1.2013e-05 0.0000e+00 0.0000e+00 2.5000e+07 1.0000e+02 1.8697e+02
1.4536e-04 1.4536e-05 0.0000e+00 0.0000e+00 2.5000e+07 1.0000e+02 1.8697e+02
1.7589e-04 1.7589e-05 0.0000e+00 0.0000e+00 2.5000e+07 1.0000e+02 1.8697e+02
2.1283e-04 2.1283e-05 0.0000e+00 0.0000e+00 2.5000e+07 1.0000e+02 1.8697e+02
2.5752e-04 2.5752e-05 0.0000e+00 0.0000e+00 2.5000e+07 1.0000e+02 1.8697e+02
3.1160e-04 3.1160e-05 0.0000e+00 0.0000e+00 2.5000e+07 1.0000e+02 1.8697e+02
3.4276e-04 3.4276e-05 0.0000e+00 0.0000e+00 2.5000e+07 1.0000e+02 1.8697e+02
4.1474e-04 4.1474e-05 0.0000e+00 0.0000e+00 2.5000e+07 1.0000e+02 1.8697e+02
5.0183e-04 5.0183e-05 0.0000e+00 0.0000e+00 2.5000e+07 1.0000e+02 1.8697e+02
6.0722e-04 6.0722e-05 0.0000e+00 0.0000e+00 2.5000e+07 1.0000e+02 1.8697e+02
7.3473e-04 7.3473e-05 0.0000e+00 0.0000e+00 2.5000e+07 1.0000e+02 1.8697e+02
8.8902e-04 8.8902e-05 0.0000e+00 0.0000e+00 2.5000e+07 1.0000e+02 1.8697e+02
1.0757e-03 1.0757e-04 0.0000e+00 0.0000e+00 2.5000e+07 1.0000e+02 1.8697e+02
1.1833e-03 1.1833e-04 0.0000e+00 0.0000e+00 2.5000e+07 1.0000e+02 1.8697e+02
1.4318e-03 1.4318e-04 0.0000e+00 0.0000e+00 2.5000e+07 1.0000e+02 1.8697e+02
1.7325e-03 1.7325e-04 0.0000e+00 0.0000e+00 2.5000e+07 1.0000e+02 1.8697e+02
2.0963e-03 2.0963e-04 0.0000e+00 0.0000e+00 2.5000e+07 1.0000e+02 1.8697e+02
2.5365e-03 2.5365e-04 0.0000e+00 0.0000e+00 2.5000e+07 1.0000e+02 1.8697e+02
3.0692e-03 3.0692e-04 0.0000e+00 0.0000e+00 2.5000e+07 1.0000e+02 1.8697e+02
3.7137e-03 3.7137e-04 -2.5195e+06 -8.5059e+02 2.5000e+07 1.0000e+02 1.8697e+02
4.0850e-03 4.0850e-04 0.0000e+00 -8.5059e+02 2.5000e+07 1.0000e+02 1.8697e+02
4.9429e-03 4.9429e-04 0.0000e+00 -8.5059e+02 2.5000e+07 1.0000e+02 1.8697e+02
5.9809e-03 5.9809e-04 0.0000e+00 -8.5059e+02 2.5000e+07 1.0000e+02 1.8697e+02
7.2369e-03 7.2369e-04 0.0000e+00 -8.5059e+02 2.5000e+07 1.0000e+02 1.8697e+02
8.7566e-03 8.7566e-04 0.0000e+00 -8.5059e+02 2.5000e+07 1.0000e+02 1.8697e+02
1.0596e-02 1.0596e-03 0.0000e+00 -8.5059e+02 2.5000e+07 1.0000e+02 1.8697e+02
1.2821e-02 1.2821e-03 0.0000e+00 -1.7012e+03 2.5000e+07 1.0000e+02 1.8697e+02
1.4103e-02 1.4103e-03 0.0000e+00 -1.7012e+03 2.5000e+07 1.0000e+02 1.8697e+02
1.7064e-02 1.7064e-03 0.0000e+00 -1.7012e+03 2.5000e+07 1.0000e+02 1.8697e+02
2.0648e-02 2.0648e-03 0.0000e+00 -2.5518e+03 2.5000e+07 1.0000e+02 1.8697e+02
2.4984e-02 2.4984e-03 0.0000e+00 -2.5518e+03 2.5000e+07 1.0000e+02 1.8697e+02
3.0230e-02 3.0230e-03 0.0000e+00 -3.4024e+03 2.5000e+07 1.0000e+02 1.8697e+02
3.6579e-02 3.6579e-03 0.0000e+00 -4.2530e+03 2.5000e+07 1.0000e+02 1.8697e+02
4.0237e-02 4.0237e-03 0.0000e+00 -4.2530e+03 2.5000e+07 1.0000e+02 1.8697e+02
4.8686e-02 4.8686e-03 1.9218e+05 -1.7012e+03 2.5000e+07 1.0000e+02 1.8697e+02
5.8910e-02 5.8910e-03 1.5883e+05 0.0000e+00 2.5000e+07 1.0000e+02 1.8697e+02
7.1282e-02 7.1282e-03 0.0000e+00 8.5059e+02 2.5000e+07 1.0000e+02 1.8697e+02
8.6251e-02 8.6251e-03 1.0848e+05 3.4024e+03 2.5000e+07 1.0000e+02 1.8697e+02
1.0436e-01 1.0436e-02 0.0000e+00 4.2530e+03 2.5000e+07 1.0000e+02 1.8697e+02
1.2628e-01 1.2628e-02 1.4819e+05 5.1035e+03 2.5000e+07 1.0000e+02 1.8697e+02
1.3891e-01 1.3891e-02 6.7358e+04 5.9541e+03 2.5000e+07 1.0000e+02 1.8697e+02
1.6808e-01 1.6808e-02 1.1134e+05 7.6553e+03 2.5000e+07 1.0000e+02 1.8697e+02
2.0337e-01 2.0337e-02 4.6006e+04 1.0207e+04 2.5000e+07 1.0000e+02 1.8697e+02
2.4608e-01 2.4608e-02 3.8022e+04 1.3609e+04 2.5000e+07 1.0000e+02 1.8697e+02
2.9776e-01 2.9776e-02 9.4269e+04 1.9564e+04 2.5000e+07 1.0000e+02 1.8697e+02
3.6029e-01 3.6029e-02 1.0388e+05 2.5518e+04 2.5000e+07 1.0000e+02 1.8697e+02
4.3595e-01 4.3595e-02 1.0731e+05 3.2322e+04 2.5000e+07 1.0000e+02 1.8697e+02
4.7955e-01 4.7955e-02 7.8045e+04 3.5725e+04 2.5000e+07 1.0000e+02 1.8697e+02
5.8025e-01 5.8025e-02 8.0625e+04 4.5081e+04 2.5000e+07 1.0000e+02 1.8697e+02
7.0210e-01 7.0210e-02 9.3285e+04 5.6139e+04 2.5000e+07 1.0000e+02 1.8697e+02
8.4955e-01 8.4955e-02 7.7095e+04 6.8898e+04 2.5000e+07 1.0000e+02 1.8697e+02
1.0280e+00 1.0280e-01 8.1919e+04 8.3358e+04 2.5000e+07 1.0000e+02 1.8697e+02
1.2438e+00 1.2438e-01 8.2746e+04 1.0292e+05 2.5000e+07 1.0000e+02 1.8697e+02
1.5050e+00 1.5050e-01 1.0569e+05 1.2674e+05 2.5000e+07 1.0000e+02 1.8697e+02
1.6555e+00 1.6555e-01 8.4775e+04 1.3950e+05 2.5000e+07 1.0000e+02 1.8697e+02
2.0032e+00 2.0032e-01 8.4075e+04 1.7012e+05 2.5000e+07 1.0000e+02 1.8697e+02
2.4239e+00 2.4239e-01 9.2644e+04 2.0754e+05 2.5000e+07 1.0000e+02 1.8697e+02
2.9329e+00 2.9329e-01 9.2517e+04 2.5177e+05 2.5000e+07 1.0000e+02 1.8697e+02
3.5488e+00 3.5488e-01 8.9643e+04 3.0536e+05 2.5000e+07 1.0000e+02 1.8697e+02
4.2940e+00 4.2940e-01 8.7159e+04 3.7171e+05 2.5000e+07 1.0000e+02 1.8697e+02
4.7234e+00 4.7234e-01 8.5178e+04 4.0828e+05 2.5000e+07 1.0000e+02 1.8697e+02
5.7153e+00 5.7153e-01 8.8403e+04 4.9504e+05 2.5000e+07 1.0000e+02 1.8697e+02
6.9155e+00 6.9155e-01 8.9296e+04 6.0052e+05 2.5000e+07 1.0000e+02 1.8697e+02
8.3678e+00 8.3678e-01 8.6098e+04 7.2640e+05 2.5000e+07 1.0000e+02 1.8697e+02
1.0125e+01 1.0125e+00 8.6865e+04 8.7951e+05 2.5000e+07 1.0000e+02 1.8697e+02
1.2251e+01 1.2251e+00 8.7064e+04 1.0649e+06 2.5000e+07 1.0000e+02 1.8697e+02
1.4824e+01 1.4824e+00 8.6470e+04 1.2895e+06 2.5000e+07 1.0000e+02 1.8697e+02
1.6306e+01 1.6306e+00 8.7216e+04 1.4188e+06 2.5000e+07 1.0000e+02 1.8697e+02
1.9731e+01 1.9731e+00 8.8677e+04 1.7207e+06 2.5000e+07 1.0000e+02 1.8697e+02
2.3874e+01 2.3874e+00 8.9355e+04 2.0873e+06 2.5000e+07 1.0000e+02 1.8697e+02
2.8888e+01 2.8888e+00 8.9070e+04 2.5305e+06 2.5000e+07 1.0000e+02 1.8697e+02
3.4954e+01 3.4954e+00 8.9137e+04 3.0689e+06 2.5000e+07 1.0000e+02 1.8697e+02
4.2295e+01 4.2295e+00 8.8931e+04 3.7205e+06 2.5000e+07 1.0000e+02 1.8697e+02
5.1177e+01 5.1177e+00 8.9585e+04 4.5149e+06 2.5000e+07 1.0000e+02 1.8697e+02
5.6294e+01 5.6294e+00 8.9918e+04 4.9751e+06 2.5000e+07 1.0000e+02 1.8697e+02
6.8116e+01 6.8116e+00 9.0246e+04 6.0417e+06 2.5000e+07 1.0000e+02 1.8697e+02
8.2421e+01 8.2421e+00 9.1158e+04 7.3440e+06 2.5000e+07 1.0000e+02 1.8697e+02
9.9729e+01 9.9729e+00 9.2131e+04 8.9321e+06 2.5000e+07 1.0000e+02 1.8697e+02
1.2067e+02 1.2067e+01 9.2966e+04 1.0872e+07 2.5000e+07 1.0000e+02 1.8697e+02
1.4601e+02 1.4601e+01 9.4133e+04 1.3249e+07 2.5000e+07 1.0000e+02 1.8697e+02
1.7668e+02 1.7668e+01 9.5484e+04 1.6165e+07 2.5000e+07 1.0000e+02 1.8697e+02
1.9434e+02 1.9434e+01 9.6288e+04 1.7867e+07 2.5000e+07 1.0000e+02 1.8697e+02
2.3516e+02 2.3516e+01 9.7920e+04 2.1846e+07 2.5000e+07 1.0000e+02 1.8697e+02
2.8454e+02 2.8454e+01 9.9866e+04 2.6756e+07 2.5000e+07 1.0000e+02 1.8697e+02
3.4429e+02 3.4429e+01 1.0218e+05 3.2828e+07 2.5000e+07 1.0000e+02 1.8697e+02
4.1659e+02 4.1659e+01 1.0477e+05 4.0355e+07 2.5000e+07 1.0000e+02 1.8697e+02
5.0408e+02 5.0408e+01 1.0753e+05 4.9704e+07 2.5000e+07 1.0000e+02 1.8697e+02
5.5448e+02 5.5448e+01 1.0904e+05 5.5201e+07 2.5000e+07 1.0000e+02 1.8697e+02
6.7093e+02 6.7093e+01 1.1226e+05 6.8182e+07 2.5000e+07 1.0000e+02 1.8697e+02
8.1182e+02 8.1182e+01 1.1561e+05 8.4352e+07 2.5000e+07 1.0000e+02 1.8697e+02
9.8230e+02 9.8230e+01 1.1904e+05 1.0451e+08 2.5000e+07 1.0000e+02 1.8697e+02
1.1886e+03 1.1886e+02 1.2243e+05 1.2960e+08 2.5000e+07 1.0000e+02 1.8697e+02
1.4382e+03 1.4382e+02 1.2563e+05 1.6077e+08 2.5000e+07 1.0000e+02 1.8697e+02
1.7402e+03 1.7402e+02 1.2850e+05 1.9938e+08 2.5000e+07 1.0000e+02 1.8697e+02
1.9142e+03 1.9142e+02 1.2977e+05 2.2196e+08 2.5000e+07 1.0000e+02 1.8697e+02
2.3162e+03 2.3162e+02 1.3192e+05 2.7480e+08 2.5000e+07 1.0000e+02 1.8697e+02
2.8026e+03 2.8026e+02 1.3350e+05 3.3957e+08 2.5000e+07 1.0000e+02 1.8697e+02
3.3912e+03 3.3912e+02 1.3454e+05 4.1862e+08 2.5000e+07 1.0000e+02 1.8697e+02
4.1033e+03 4.1033e+02 1.3514e+05 5.1478e+08 2.5000e+07 1.0000e+02 1.8697e+02
4.9650e+03 4.9650e+02 1.3543e+05 6.3144e+08 2.5000e+07 1.0000e+02 1.8697e+02
6.0077e+03 6.0077e+02 1.3555e+05 7.7275e+08 2.5000e+07 1.0000e+02 1.8697e+02
6.6084e+03 6.6084e+02 1.3557e+05 8.5419e+08 2.5000e+07 1.0000e+02 1.8697e+02
7.9962e+03 7.9962e+02 1.3558e+05 1.0423e+09 2.5000e+07 1.0000e+02 1.8697e+02
9.6754e+03 9.6754e+02 1.3558e+05 1.2700e+09 2.5000e+07 1.0000e+02 1.8697e+02
1.1707e+04 1.1707e+03 1.3558e+05 1.5455e+09 2.5000e+07 1.0000e+02 1.8697e+02
1.4166e+04 1.4166e+03 1.3558e+05 1.8788e+09 2.5000e+07 1.0000e+02 1.8697e+02
1.7141e+04 1.7141e+03 1.3558e+05 2.2822e+09 2.5000e+07 1.0000e+02 1.8697e+02
2.0740e+04 2.0740e+03 1.3558e+05 2.7702e+09 2.5000e+07 1.0000e+02 1.8697e+02
2.2814e+04 2.2814e+03 1.3557e+05 3.0513e+09 2.5000e+07 1.0000e+02 1.8697e+02
2.7605e+04 2.7605e+03 1.3557e+05 3.7009e+09 2.5000e+07 1.0000e+02 1.8697e+02
3.3402e+04 3.3402e+03 1.3556e+05 4.4867e+09 2.5000e+07 1.0000e+02 1.8697e+02
4.0417e+04 4.0417e+03 1.3556e+05 5.4376e+09 2.5000e+07 1.0000e+02 1.8697e+02
4.8904e+04 4.8904e+03 1.3555e+05 6.5881e+09 2.5000e+07 1.0000e+02 1.8697e+02
5.9174e+04 5.9174e+03 1.3554e+05 7.9801e+09 2.5000e+07 1.0000e+02 1.8697e+02
6.5091e+04 6.5091e+03 1.3554e+05 8.7822e+09 2.5000e+07 1.0000e+02 1.8697e+02
7.8761e+04 7.8761e+03 1.3552e+05 1.0635e+10 2.5000e+07 1.0000e+02 1.8697e+02
9.5300e+04 9.5300e+03 1.3551e+05 1.2876e+10 2.5000e+07 1.0000e+02 1.8697e+02
1.1531e+05 1.1531e+04 1.3549e+05 1.5588e+10 2.5000e+07 1.0000e+02 1.8697e+02
1.3953e+05 1.3953e+04 1.3547e+05 1.8868e+10 2.5000e+07 1.0000e+02 1.8697e+02
1.6883e+05 1.6883e+04 1.3545e+05 2.2837e+10 2.5000e+07 1.0000e+02 1.8697e+02
2.0428e+05 2.0428e+04 1.3542e+05 2.7639e+10 2.5000e+07 1.0000e+02 1.8697e+02
2.2471e+05 2.2471e+04 1.3540e+05 3.0405e+10 2.5000e+07 1.0000e+02 1.8697e+02
2.7190e+05 2.7190e+04 1.3536e+05 3.6793e+10 2.5000e+07 1.0000e+02 1.8697e+02
3.2900e+05 3.2900e+04 1.3531e+05 4.4519e+10 2.5000e+07 1.0000e+02 1.8697e+02
3.9809e+05 3.9809e+04 1.3525e+05 5.3864e+10 2.5000e+07 1.0000e+02 1.8697e+02
4.8169e+05 4.8169e+04 1.3517e+05 6.5166e+10 2.5000e+07 1.0000e+02 1.8697e+02
5.8285e+05 5.8285e+04 1.3509e+05 7.8833e+10 2.5000e+07 1.0000e+02 1.8697e+02
7.0525e+05 7.0525e+04 1.3498e+05 9.5358e+10 2.5000e+07 1.0000e+02 1.8697e+02
7.7577e+05 7.7577e+04 1.3492e+05 1.0487e+11 2.5000e+07 1.0000e+02 1.8697e+02
9.3868e+05 9.3868e+04 1.3478e+05 1.2684e+11 2.5000e+07 1.0000e+02 1.8697e+02
1.1358e+06 1.1358e+05 1.3461e+05 1.5338e+11 2.5000e+07 1.0000e+02 1.8697e+02
1.3743e+06 1.3743e+05 1.3441e+05 1.8545e+11 2.5000e+07 1.0000e+02 1.8697e+02
1.6629e+06 1.6629e+05 1.3417e+05 2.2419e+11 2.5000e+07 1.0000e+02 1.8697e+02
2.0121e+06 2.0121e+05 1.3388e+05 2.7097e+11 2.5000e+07 1.0000e+02 1.8697e+02
2.4347e+06 2.4347e+05 1.3353e+05 3.2743e+11 2.5000e+07 1.0000e+02 1.8697e+02
2.6782e+06 2.6782e+05 1.3333e+05 3.5989e+11 2.5000e+07 1.0000e+02 1.8697e+02
3.2406e+06 3.2406e+05 1.3287e+05 4.3468e+11 2.5000e+07 1.0000e+02 1.8697e+02
3.8142e+06 3.8142e+05 1.3235e+05 5.1068e+11 2.5000e+07 1.0000e+02 1.8697e+02
4.8123e+06 4.8123e+05 1.3161e+05 6.4228e+11 2.5000e+07 1.0000e+02 1.8697e+02
5.3783e+06 5.3783e+05 1.3110e+05 7.1652e+11 2.5000e+07 1.0000e+02 1.8697e+02
6.6167e+06 6.6167e+05 1.3014e+05 8.7810e+11 2.5000e+07 1.0000e+02 1.8697e+02
7.8232e+06 7.0086e+05 1.2918e+05 1.0344e+12 2.5000e+07 1.0000e+02 1.8697e+02
9.2710e+06 6.3352e+05 1.2809e+05 1.2204e+12 2.5000e+07 1.0000e+02 1.8697e+02
1.1043e+07 5.6120e+05 1.2681e+05 1.4460e+12 2.5000e+07 1.0000e+02 1.8697e+02
1.3074e+07 4.8719e+05 1.2542e+05 1.7019e+12 2.5000e+07 1.0000e+02 1.8697e+02
1.5712e+07 5.8028e+05 1.2378e+05 2.0304e+12 2.5000e+07 1.0000e+02 1.8697e+02
1.8524e+07 4.7413e+05 1.2212e+05 2.3760e+12 2.5000e+07 1.0000e+02 1.8697e+02
2.2166e+07 5.2088e+05 1.2020e+05 2.8169e+12 2.5000e+07 1.0000e+02 1.8697e+02
2.6427e+07 5.4958e+05 1.1818e+05 3.3244e+12 2.5000e+07 1.0000e+02 1.8697e+02
3.1619e+07 5.3485e+05 1.1604e+05 3.9320e+12 2.5000e+07 1.0000e+02 1.8697e+02
3.7517e+07 4.8990e+05 1.1398e+05 4.6099e+12 2.5000e+07 1.0000e+02 1.8697e+02
4.4818e+07 5.7945e+05 1.1190e+05 5.4339e+12 2.5000e+07 1.0000e+02 1.8697e+02
5.3378e+07 6.1951e+05 1.0998e+05 6.3829e+12 2.5000e+07 1.0000e+02 1.8697e+02
6.3805e+07 5.6351e+05 1.0826e+05 7.5200e+12 2.5000e+07 1.0000e+02 1.8697e+02
7.6103e+07 6.3567e+05 1.0690e+05 8.8421e+12 2.5000e+07 1.0000e+02 1.8697e+02
9.0533e+07 5.9785e+05 1.0595e+05 1.0377e+13 2.5000e+07 1.0000e+02 1.8697e+02
1.0817e+08 4.3877e+05 1.0543e+05 1.2240e+13 2.5000e+07 1.0000e+02 1.8697e+02
1.2897e+08 6.9059e+05 1.0539e+05 1.4432e+13 2.5000e+07 1.0000e+02 1.8697e+02
1.5391e+08 7.2546e+05 1.0580e+05 1.7065e+13 2.5000e+07 1.0000e+02 1.8697e+02
1.8355e+08 6.9651e+05 1.0661e+05 2.0213e+13 2.5000e+07 1.0000e+02 1.8697e+02
2.1888e+08 4.8794e+05 1.0779e+05 2.3999e+13 2.5000e+07 1.0000e+02 1.8697e+02
2.6113e+08 5.8797e+05 1.0928e+05 2.8585e+13 2.5000e+07 1.0000e+02 1.8697e+02
3.1162e+08 4.3836e+05 1.1109e+05 3.4149e+13 2.5000e+07 1.0000e+02 1.8697e+02
3.7167e+08 5.6748e+05 1.1320e+05 4.0883e+13 2.5000e+07 1.0000e+02 1.8697e+02
4.4343e+08 4.2395e+05 1.1565e+05 4.9095e+13 2.5000e+07 1.0000e+02 1.8697e+02
5.2915e+08 7.0018e+05 1.1846e+05 5.9131e+13 2.5000e+07 1.0000e+02 1.8697e+02
6.3114e+08 4.4758e+05 1.2166e+05 7.1378e+13 2.5000e+07 1.0000e+02 1.8697e+02
7.5304e+08 7.3907e+05 1.2527e+05 8.6430e+13 2.5000e+07 1.0000e+02 1.8697e+02
8.9822e+08 4.5226e+05 1.2928e+05 1.0491e+14 2.5000e+07 1.0000e+02 1.8697e+02
1.0718e+09 6.3541e+05 1.3368e+05 1.2774e+14 2.5000e+07 1.0000e+02 1.8697e+02
1.2786e+09 4.2766e+05 1.3840e+05 1.5588e+14 2.5000e+07 1.0000e+02 1.8697e+02
1.5253e+09 6.8329e+05 1.4334e+05 1.9066e+14 2.5000e+07 1.0000e+02 1.8697e+02
1.8199e+09 7.4268e+05 1.4834e+05 2.3364e+14 2.5000e+07 1.0000e+02 1.8697e+02
2.1711e+09 7.8582e+05 1.5315e+05 2.8662e+14 2.5000e+07 1.0000e+02 1.8697e+02
2.5902e+09 6.8508e+05 1.5745e+05 3.5176e+14 2.5000e+07 1.0000e+02 1.8697e+02
3.0905e+09 7.3055e+05 1.6083e+05 4.3145e+14 2.5000e+07 1.0000e+02 1.8697e+02
3.6872e+09 8.1842e+05 1.6278e+05 5.2810e+14 2.5000e+07 1.0000e+02 1.8697e+02
4.3990e+09 5.2993e+05 1.6278e+05 6.4410e+14 2.5000e+07 1.0000e+02 1.8697e+02
5.2482e+09 8.3306e+05 1.6029e+05 7.8145e+14 2.5000e+07 1.0000e+02 1.8697e+02
6.2615e+09 4.4319e+05 1.5487e+05 9.4130e+14 2.5000e+07 1.0000e+02 1.8697e+02
7.4702e+09 1.0125e+06 1.4626e+05 1.1235e+15 2.5000e+07 1.0000e+02 1.8697e+02
8.9127e+09 9.4520e+05 1.3448e+05 1.3260e+15 2.5000e+07 1.0000e+02 1.8697e+02
1.0634e+10 6.4588e+05 1.1991e+05 1.5449e+15 2.5000e+07 1.0000e+02 1.8697e+02
1.2686e+10 8.9722e+05 1.0331e+05 1.7738e+15 2.5000e+07 1.0000e+02 1.8697e+02
1.5136e+10 1.0661e+06 8.5722e+04 2.0047e+15 2.5000e+07 1.0000e+02 1.8697e+02
1.8058e+10 1.2471e+06 6.8323e+04 2.2289e+15 2.5000e+07 1.0000e+02 1.8697e+02
2.1545e+10 1.1723e+06 5.2262e+04 2.4377e+15 2.5000e+07 1.0000e+02 1.8697e+02
2.5704e+10 2.0980e+06 3.8451e+04 2.6246e+15 2.5000e+07 1.0000e+02 1.8697e+02
3.0668e+10 2.5847e+06 2.7435e+04 2.7861e+15 2.5000e+07 1.0000e+02 1.8697e+02
3.6589e+10 2.6767e+06 1.9356e+04 2.9225e+15 2.5000e+07 1.0000e+02 1.8697e+02
4.3652e+10 3.5706e+06 1.3970e+04 3.0382e+15 2.5000e+07 1.0000e+02 1.8697e+02
5.2080e+10 5.0157e+06 1.0754e+04 3.1407e+15 2.5000e+07 1.0000e+02 1.8697e+02
6.2137e+10 1.0036e+07 9.0669e+03 3.2391e+15 2.5000e+07 1.0000e+02 1.8697e+02
7.4137e+10 1.6195e+07 8.3058e+03 3.3425e+15 2.5000e+07 1.0000e+02 1.8697e+02
8.8452e+10 3.2176e+07 8.0168e+03 3.4589e+15 2.5000e+07 1.0000e+02 1.8697e+02
1.0554e+11 6.0701e+07 7.9261e+03 3.5950e+15 2.5000e+07 1.0000e+02 1.8697e+02
1.2591e+11 1.5636e+08 7.9025e+03 3.7561e+15 2.5000e+07 1.0000e+02 1.8697e+02
1.5028e+11 2.5529e+08 7.8971e+03 3.9487e+15 2.5000e+07 1.0000e+02 1.8697e+02
1.7931e+11 4.8596e+08 7.8958e+03 4.1778e+15 2.5000e+07 1.0000e+02 1.8697e+02
2.1397e+11 3.9027e+08 7.8952e+03 4.4515e+15 2.5000e+07 1.0000e+02 1.8697e+02
2.5534e+11 9.5768e+08 7.8946e+03 4.7781e+15 2.5000e+07 1.0000e+02 1.8697e+02
3.0434e+11 6.5447e+08 7.8940e+03 5.1649e+15 2.5000e+07 1.0000e+02 1.8697e+02
3.6311e+11 6.5875e+08 7.8934e+03 5.6289e+15 2.5000e+07 1.0000e+02 1.8697e+02
4.3325e+11 6.8238e+08 7.8926e+03 6.1825e+15 2.5000e+07 1.0000e+02 1.8697e+02
5.1698e+11 7.7598e+08 7.8917e+03 6.8433e+15 2.5000e+07 1.0000e+02 1.8697e+02
6.1661e+11 7.7470e+08 7.8907e+03 7.6295e+15 2.5000e+07 1.0000e+02 1.8697e+02
7.3587e+11 8.3174e+08 7.8895e+03 8.5705e+15 2.5000e+07 1.0000e+02 1.8697e+02
8.7787e+11 9.3896e+08 7.8883e+03 9.6906e+15 2.5000e+07 1.0000e+02 1.8697e+02
1.0476e+12 1.1845e+09 7.8869e+03 1.1030e+16 2.5000e+07 1.0000e+02 1.8697e+02
1.2494e+12 1.2546e+09 7.8856e+03 1.2621e+16 2.5000e+07 1.0000e+02 1.8697e+02
1.4910e+12 2.0236e+09 7.8842e+03 1.4526e+16 2.5000e+07 1.0000e+02 1.8697e+02
1.7783e+12 2.8124e+09 7.8831e+03 1.6791e+16 2.5000e+07 1.0000e+02 1.8697e+02
2.1218e+12 9.9105e+08 7.8823e+03 1.9498e+16 2.5000e+07 1.0000e+02 1.8697e+02
2.5317e+12 1.1011e+09 7.8822e+03 2.2729e+16 2.5000e+07 1.0000e+02 1.8697e+02
3.0201e+12 5.5738e+08 7.8833e+03 2.6579e+16 2.5000e+07 1.0000e+02 1.8697e+02
3.6034e+12 7.4298e+08 7.8862e+03 3.1178e+16 2.5000e+07 1.0000e+02 1.8697e+02
4.2988e+12 4.3164e+08 7.8919e+03 3.6665e+16 2.5000e+07 1.0000e+02 1.8697e+02
5.1287e+12 4.8211e+08 7.9018e+03 4.3218e+16 2.5000e+07 1.0000e+02 1.8697e+02
6.1189e+12 3.7749e+08 7.9177e+03 5.1049e+16 2.5000e+07 1.0000e+02 1.8697e+02
7.3004e+12 3.8182e+08 7.9421e+03 6.0418e+16 2.5000e+07 1.0000e+02 1.8697e+02
8.7098e+12 3.4996e+08 7.9786e+03 7.1637e+16 2.5000e+07 1.0000e+02 1.8697e+02
1.0391e+13 3.5924e+08 8.0315e+03 8.5095e+16 2.5000e+07 1.0000e+02 1.8697e+02
1.2398e+13 2.8737e+08 8.1067e+03 1.0128e+17 2.5000e+07 1.0000e+02 1.8697e+02
1.4791e+13 2.8222e+08 8.2111e+03 1.2081e+17 2.5000e+07 1.0000e+02 1.8697e+02
1.7647e+13 1.8627e+08 8.3533e+03 1.4446e+17 2.5000e+07 1.0000e+02 1.8697e+02
2.1054e+13 1.7411e+08 8.5424e+03 1.7323e+17 2.5000e+07 1.0000e+02 1.8697e+02
2.5119e+13 1.6521e+08 8.7880e+03 2.0845e+17 2.5000e+07 1.0000e+02 1.8697e+02
2.9969e+13 2.2153e+08 9.0980e+03 2.5182e+17 2.5000e+07 1.0000e+02 1.8697e+02
3.5755e+13 2.7536e+08 9.4762e+03 3.0555e+17 2.5000e+07 1.0000e+02 1.8697e+02
4.2658e+13 2.6157e+08 9.9190e+03 3.7251e+17 2.5000e+07 1.0000e+02 1.8697e+02
5.0894e+13 2.5584e+08 1.0410e+04 4.5626e+17 2.5000e+07 1.0000e+02 1.8697e+02
6.0720e+13 2.2171e+08 1.0917e+04 5.6112e+17 2.5000e+07 1.0000e+02 1.8697e+02
7.2444e+13 3.3368e+08 1.1388e+04 6.9202e+17 2.5000e+07 1.0000e+02 1.8697e+02
8.6430e+13 2.4582e+08 1.1752e+04 8.5410e+17 2.5000e+07 1.0000e+02 1.8697e+02
1.0312e+14 4.1221e+08 1.1927e+04 1.0520e+18 2.5000e+07 1.0000e+02 1.8697e+02
1.2303e+14 7.0200e+08 1.1835e+04 1.2890e+18 2.5000e+07 1.0000e+02 1.8697e+02
1.4678e+14 1.1575e+09 1.1422e+04 1.5658e+18 2.5000e+07 1.0000e+02 1.8697e+02
1.7512e+14 4.7367e+08 1.0670e+04 1.8793e+18 2.5000e+07 1.0000e+02 1.8697e+02
2.0893e+14 4.6651e+08 9.6084e+03 2.2224e+18 2.5000e+07 1.0000e+02 1.8697e+02
2.4927e+14 4.7900e+08 8.3098e+03 2.5836e+18 2.5000e+07 1.0000e+02 1.8697e+02
2.9739e+14 4.6871e+08 6.8742e+03 2.9483e+18 2.5000e+07 1.0000e+02 1.8697e+02
3.5481e+14 4.6691e+08 5.4130e+03 3.2997e+18 2.5000e+07 1.0000e+02 1.8697e+02
4.2332e+14 5.5191e+08 4.0319e+03 3.6211e+18 2.5000e+07 1.0000e+02 1.8697e+02
5.0505e+14 8.6487e+08 2.8178e+03 3.8982e+18 2.5000e+07 1.0000e+02 1.8697e+02
